out,A0,dA0,A1,dA1,A2,dA2,A0-A1,d(A0-A1),A1-A2,d(A1-A2),current (mA),d(current (mA))
0.00,0.0000,0.0000,0.0000,0.0000,0.0000,0.0000,0.0000,0.0000,0.0000,0.0000,0.0000,nan
0.10,0.0782,0.0000,0.0782,0.0000,0.0000,0.0000,0.0000,0.0000,0.0782,0.0000,0.0000,nan
0.20,0.1760,0.0000,0.1760,0.0000,0.0000,0.0000,0.0000,0.0000,0.1760,0.0000,0.0000,nan
0.30,0.2742,0.0015,0.2747,0.0020,0.0000,0.0000,-0.0005,0.0007,0.2747,0.0005,-0.0022,-0.0031
0.40,0.3675,0.0020,0.3685,0.0024,0.0000,0.0000,-0.0010,0.0011,0.3685,0.0009,-0.0045,-0.0052
0.50,0.4692,0.0000,0.4697,0.0015,0.0000,0.0000,-0.0005,0.0007,0.4697,0.0007,-0.0022,-0.0032
0.60,0.5674,0.0015,0.5674,0.0015,0.0000,0.0000,0.0000,0.0012,0.5674,0.0008,0.0000,nan
0.70,0.6647,0.0000,0.6652,0.0015,0.0000,0.0000,-0.0005,0.0010,0.6652,0.0010,-0.0022,-0.0045
0.80,0.7664,0.0020,0.7669,0.0015,0.0000,0.0000,-0.0005,0.0019,0.7669,0.0011,-0.0022,-0.0086
0.90,0.8602,0.0000,0.8602,0.0000,0.0000,0.0000,0.0000,0.0000,0.8602,0.0000,0.0000,nan
1.00,0.9580,0.0000,0.9580,0.0000,0.0000,0.0000,0.0000,0.0000,0.9580,0.0000,0.0000,nan
1.10,1.0591,0.0022,1.0587,0.0024,0.0000,0.0000,0.0005,0.0035,1.0587,0.0025,0.0022,0.0159
1.20,1.1520,0.0022,1.1530,0.0015,0.0000,0.0000,-0.0010,0.0031,1.1530,0.0017,-0.0045,-0.0141
1.30,1.2561,0.0000,1.2561,0.0000,0.0000,0.0000,0.0000,0.0000,1.2561,0.0000,0.0000,nan
1.40,1.3534,0.0015,1.3539,0.0000,0.0000,0.0000,-0.0005,0.0020,1.3539,0.0000,-0.0022,-0.0091
1.50,1.4477,0.0020,1.4501,0.0022,0.0000,0.0000,-0.0024,0.0043,1.4501,0.0032,-0.0112,-0.0197
1.60,1.5508,0.0022,1.5503,0.0020,0.0000,0.0000,0.0005,0.0046,1.5503,0.0030,0.0022,0.0211
1.70,1.6471,0.0000,1.6471,0.0000,0.0000,0.0000,0.0000,0.0000,1.6471,0.0000,0.0000,nan
1.80,1.7454,0.0015,1.7449,0.0000,0.0000,0.0000,0.0005,0.0026,1.7449,0.0000,0.0022,0.0117
1.90,1.8475,0.0000,1.8470,0.0015,0.0000,0.0000,0.0005,0.0027,1.8470,0.0027,0.0022,0.0124
2.00,1.9384,0.0024,1.9384,0.0024,0.0000,0.0000,0.0000,0.0066,1.9384,0.0046,0.0000,nan
2.10,2.0391,0.0020,2.0381,0.0000,0.0000,0.0000,0.0010,0.0040,2.0381,0.0000,0.0045,0.0183
2.20,2.1359,0.0000,2.1212,0.0000,0.0000,0.0000,0.0147,0.0000,2.1212,0.0000,0.0672,0.0003
2.30,2.2331,0.0015,2.1799,0.0000,0.0000,0.0000,0.0533,0.0033,2.1799,0.0000,0.2440,0.0150
2.40,2.3348,0.0022,2.2287,0.0000,0.0000,0.0000,0.1061,0.0052,2.2287,0.0000,0.4858,0.0241
2.50,2.4291,0.0000,2.2630,0.0000,0.0000,0.0000,0.1662,0.0000,2.2630,0.0000,0.7612,0.0038
2.60,2.5269,0.0000,2.2923,0.0000,0.0000,0.0000,0.2346,0.0000,2.2923,0.0000,1.0747,0.0054
2.70,2.6266,0.0024,2.3216,0.0000,0.0000,0.0000,0.3050,0.0063,2.3216,0.0000,1.3971,0.0296
2.80,2.7224,0.0000,2.3460,0.0000,0.0000,0.0000,0.3763,0.0000,2.3460,0.0000,1.7240,0.0086
2.90,2.8201,0.0000,2.3671,0.0022,0.0000,0.0000,0.4531,0.0053,2.3671,0.0053,2.0755,0.0264
3.00,2.9184,0.0015,2.3895,0.0015,0.0000,0.0000,0.5288,0.0055,2.3895,0.0035,2.4225,0.0281
3.10,3.0161,0.0015,2.4086,0.0020,0.0000,0.0000,0.6075,0.0065,2.4086,0.0047,2.7830,0.0327
3.20,3.1232,0.0000,2.4262,0.0024,0.0000,0.0000,0.6970,0.0058,2.4262,0.0058,3.1927,0.0310
3.30,3.2165,0.0015,2.4438,0.0000,0.0000,0.0000,0.7727,0.0047,2.4438,0.0000,3.5397,0.0279
3.40,3.3187,0.0000,2.4589,0.0015,0.0000,0.0000,0.8597,0.0036,2.4589,0.0036,3.9383,0.0257
3.50,3.4164,0.0000,2.4775,0.0015,0.0000,0.0000,0.9389,0.0036,2.4775,0.0036,4.3010,0.0272
3.60,3.5117,0.0024,2.4927,0.0000,0.0000,0.0000,1.0191,0.0086,2.4927,0.0000,4.6682,0.0457
3.70,3.6114,0.0015,2.5064,0.0020,0.0000,0.0000,1.1051,0.0072,2.5064,0.0049,5.0622,0.0416
3.80,3.7107,0.0020,2.5196,0.0024,0.0000,0.0000,1.1911,0.0095,2.5196,0.0062,5.4563,0.0514
3.90,3.8065,0.0020,2.5318,0.0000,0.0000,0.0000,1.2747,0.0074,2.5318,0.0000,5.8391,0.0449
4.00,3.9052,0.0000,2.5464,0.0000,0.0000,0.0000,1.3587,0.0000,2.5464,0.0000,6.2242,0.0311
4.10,4.0029,0.0000,2.5577,0.0022,0.0000,0.0000,1.4453,0.0057,2.5577,0.0057,6.6205,0.0422
4.20,4.1007,0.0000,2.5709,0.0000,0.0000,0.0000,1.5298,0.0000,2.5709,0.0000,7.0079,0.0350
4.30,4.1984,0.0000,2.5816,0.0020,0.0000,0.0000,1.6168,0.0050,2.5816,0.0050,7.4064,0.0437
4.40,4.2918,0.0015,2.5953,0.0000,0.0000,0.0000,1.6965,0.0063,2.5953,0.0000,7.7713,0.0484
4.50,4.3944,0.0015,2.6056,0.0015,0.0000,0.0000,1.7889,0.0075,2.6056,0.0038,8.1945,0.0534
4.60,4.4932,0.0022,2.6163,0.0022,0.0000,0.0000,1.8768,0.0116,2.6163,0.0059,8.5975,0.0685
4.70,4.5880,0.0022,2.6281,0.0022,0.0000,0.0000,1.9599,0.0118,2.6281,0.0059,8.9781,0.0704
4.80,4.6486,0.0015,2.6344,0.0000,0.0000,0.0000,2.0142,0.0068,2.6344,0.0000,9.2266,0.0557
4.90,4.6481,0.0000,2.6344,0.0000,0.0000,0.0000,2.0137,0.0000,2.6344,0.0000,9.2244,0.0461
5.00,4.6491,0.0020,2.6344,0.0000,0.0000,0.0000,2.0147,0.0091,2.6344,0.0000,9.2289,0.0622